# t[s]  Ttr[K]  Tv[K]  Et[J/m3]  Ev[J/m3]  p[Pa]
0 12000 2000 151987 6974.69 101325
1e-08 11661.9 2594.98 147705 11257.4 98469.8
2e-08 11379.4 3065.66 144127 14835.3 96084.6
3e-08 11138.7 3456.35 141079 17883.1 94052.7
4e-08 10930.6 3789.29 138443 20519.5 92295.1
5e-08 10748.2 4078.12 136133 22829 90755.5
6e-08 10586.8 4332.04 134089 24873.2 89392.6
7e-08 10442.7 4557.67 132264 26698.7 88175.7
8e-08 10313 4759.89 130621 28341 87080.8
9e-08 10195.6 4942.47 129134 29828.3 86089.2
1e-07 10088.7 5108.34 127779 31182.9 85186.2
1.1e-07 9990.78 5259.87 126539 32422.7 84359.6
1.2e-07 9900.79 5398.93 125400 33562.5 83599.8
1.3e-07 9817.72 5527.11 124348 34614.6 82898.4
1.4e-07 9740.78 5645.69 123373 35589.1 82248.7
1.5e-07 9669.28 5755.76 122468 36494.7 81645
1.6e-07 9602.65 5858.25 121624 37338.6 81082.4
1.7e-07 9540.39 5953.93 120835 38127.2 80556.7
1.8e-07 9482.07 6043.49 120096 38865.8 80064.3
1.9e-07 9427.33 6127.5 119403 39559.2 79602
2e-07 9375.83 6206.48 118751 40211.4 79167.2
2.1e-07 9327.3 6280.88 118136 40826.1 78757.4
2.2e-07 9281.48 6351.07 117556 41406.4 78370.5
2.3e-07 9238.16 6417.43 117007 41955.1 78004.7
2.4e-07 9197.13 6480.23 116487 42474.8 77658.3
2.5e-07 9158.22 6539.78 115995 42967.6 77329.7
2.6e-07 9121.27 6596.3 115527 43435.6 77017.7
2.7e-07 9086.14 6650.02 115082 43880.5 76721.1
2.8e-07 9052.7 6701.14 114658 44304.1 76438.8
2.9e-07 9020.84 6749.83 114255 44707.6 76169.7
3e-07 8990.45 6796.27 113870 45092.5 75913.1
3.1e-07 8961.43 6840.59 113502 45460.1 75668.1
3.2e-07 8933.7 6882.94 113151 45811.3 75433.9
3.3e-07 8907.18 6923.44 112815 46147.2 75210
3.4e-07 8881.79 6962.19 112493 46468.7 74995.6
3.5e-07 8857.47 6999.31 112185 46776.7 74790.3
3.6e-07 8834.16 7034.89 111890 47072 74593.4
3.7e-07 8811.79 7069.01 111607 47355.3 74404.6
3.8e-07 8790.33 7101.76 111335 47627.2 74223.3
3.9e-07 8769.7 7133.22 111074 47888.4 74049.2
4e-07 8749.88 7163.44 110823 48139.4 73881.8
4.1e-07 8730.82 7192.51 110581 48380.8 73720.9
4.2e-07 8712.48 7220.47 110349 48613.1 73566
4.3e-07 8694.83 7247.38 110125 48836.7 73417
4.4e-07 8677.83 7273.3 109910 49052.1 73273.4
4.5e-07 8661.44 7298.27 109703 49259.6 73135
4.6e-07 8645.65 7322.34 109503 49459.7 73001.7
4.7e-07 8630.41 7345.56 109310 49652.6 72873
4.8e-07 8615.71 7367.95 109123 49838.8 72748.9
4.9e-07 8601.53 7389.57 108944 50018.5 72629.1
5e-07 8587.83 7410.43 108770 50192 72513.5
5.1e-07 8574.59 7430.59 108603 50359.6 72401.7
5.2e-07 8561.81 7450.07 108441 50521.6 72293.8
5.3e-07 8549.45 7468.89 108284 50678.1 72189.4
5.4e-07 8537.5 7487.09 108133 50829.5 72088.5
5.5e-07 8525.94 7504.7 107986 50975.9 71990.9
5.6e-07 8514.75 7521.73 107845 51117.5 71896.4
5.7e-07 8503.93 7538.21 107708 51254.6 71805
5.8e-07 8493.45 7554.16 107575 51387.4 71716.6
5.9e-07 8483.3 7569.61 107446 51515.9 71630.9
6e-07 8473.47 7584.57 107322 51640.4 71547.9
6.1e-07 8463.95 7599.06 107201 51761 71467.5
6.2e-07 8454.72 7613.11 107084 51877.8 71389.6
6.3e-07 8445.78 7626.72 106971 51991.1 71314.1
6.4e-07 8437.11 7639.92 106861 52100.9 71240.8
6.5e-07 8428.7 7652.71 106755 52207.4 71169.8
6.6e-07 8420.55 7665.12 106651 52310.7 71101
6.7e-07 8412.63 7677.16 106551 52410.9 71034.2
6.8e-07 8404.96 7688.84 106454 52508.2 70969.4
6.9e-07 8397.51 7700.18 106360 52602.5 70906.5
7e-07 8390.28 7711.18 106268 52694.1 70845.4
7.1e-07 8383.26 7721.87 106179 52783 70786.1
7.2e-07 8376.44 7732.24 106093 52869.4 70728.5
7.3e-07 8369.82 7742.31 106009 52953.2 70672.6
7.4e-07 8363.39 7752.09 105928 53034.7 70618.4
7.5e-07 8357.14 7761.59 105848 53113.8 70565.6
7.6e-07 8351.07 7770.83 105772 53190.7 70514.4
7.7e-07 8345.17 7779.8 105697 53265.4 70464.6
7.8e-07 8339.44 7788.52 105624 53338 70416.1
7.9e-07 8333.87 7796.99 105554 53408.5 70369.1
8e-07 8328.45 7805.23 105485 53477.1 70323.4
8.1e-07 8323.18 7813.24 105418 53543.8 70278.9
8.2e-07 8318.06 7821.03 105353 53608.7 70235.6
8.3e-07 8313.08 7828.61 105290 53671.8 70193.6
8.4e-07 8308.24 7835.98 105229 53733.1 70152.7
8.5e-07 8303.53 7843.14 105169 53792.8 70112.9
8.6e-07 8298.94 7850.11 105111 53850.9 70074.2
8.7e-07 8294.48 7856.9 105055 53907.4 70036.5
8.8e-07 8290.14 7863.5 105000 53962.4 69999.9
8.9e-07 8285.92 7869.92 104946 54015.9 69964.2
9e-07 8281.81 7876.17 104894 54067.9 69929.5
9.1e-07 8277.81 7882.25 104844 54118.6 69895.7
9.2e-07 8273.91 7888.18 104794 54167.9 69862.8
9.3e-07 8270.12 7893.94 104746 54215.9 69830.8
9.4e-07 8266.43 7899.55 104699 54262.7 69799.7
9.5e-07 8262.83 7905.02 104654 54308.2 69769.3
9.6e-07 8259.33 7910.34 104610 54352.6 69739.8
9.7e-07 8255.93 7915.52 104566 54395.7 69711
9.8e-07 8252.61 7920.57 104524 54437.8 69682.9
9.9e-07 8249.37 7925.49 104483 54478.7 69655.6
1e-06 8246.22 7930.28 104444 54518.6 69629
1.01e-06 8243.15 7934.94 104405 54557.5 69603.1
1.02e-06 8240.17 7939.48 104367 54595.3 69577.9
1.03e-06 8237.25 7943.91 104330 54632.2 69553.3
1.04e-06 8234.42 7948.23 104294 54668.2 69529.4
1.05e-06 8231.65 7952.43 104259 54703.2 69506
1.06e-06 8228.96 7956.52 104225 54737.3 69483.3
1.07e-06 8226.33 7960.52 104192 54770.6 69461.1
1.08e-06 8223.77 7964.41 104159 54803 69439.5
1.09e-06 8221.28 7968.2 104128 54834.6 69418.4
1.1e-06 8218.85 7971.89 104097 54865.3 69397.9
1.11e-06 8216.48 7975.49 104067 54895.4 69377.9
1.12e-06 8214.17 7979 104038 54924.6 69358.4
1.13e-06 8211.92 7982.43 104009 54953.1 69339.4
1.14e-06 8209.72 7985.76 103981 54980.9 69320.8
1.15e-06 8207.58 7989.02 103954 55008 69302.8
1.16e-06 8205.5 7992.19 103928 55034.5 69285.1
1.17e-06 8203.46 7995.28 103902 55060.2 69268
1.18e-06 8201.48 7998.3 103877 55085.4 69251.2
1.19e-06 8199.54 8001.24 103852 55109.9 69234.9
1.2e-06 8197.66 8004.1 103828 55133.8 69219
1.21e-06 8195.82 8006.9 103805 55157.1 69203.4
1.22e-06 8194.02 8009.63 103782 55179.8 69188.3
1.23e-06 8192.27 8012.29 103760 55201.9 69173.5
1.24e-06 8190.57 8014.88 103739 55223.6 69159.1
1.25e-06 8188.9 8017.41 103718 55244.6 69145
1.26e-06 8187.28 8019.88 103697 55265.2 69131.3
1.27e-06 8185.69 8022.29 103677 55285.3 69117.9
1.28e-06 8184.15 8024.64 103657 55304.8 69104.9
1.29e-06 8182.64 8026.93 103638 55323.9 69092.2
1.3e-06 8181.17 8029.16 103620 55342.5 69079.8
1.31e-06 8179.74 8031.34 103601 55360.7 69067.6
1.32e-06 8178.34 8033.47 103584 55378.4 69055.8
1.33e-06 8176.97 8035.54 103566 55395.7 69044.3
1.34e-06 8175.64 8037.57 103550 55412.6 69033.1
1.35e-06 8174.34 8039.54 103533 55429.1 69022.1
1.36e-06 8173.07 8041.47 103517 55445.1 69011.4
1.37e-06 8171.83 8043.35 103501 55460.8 69000.9
1.38e-06 8170.63 8045.18 103486 55476.1 68990.7
1.39e-06 8169.45 8046.97 103471 55491 68980.8
1.4e-06 8168.3 8048.72 103457 55505.6 68971.1
1.41e-06 8167.18 8050.43 103442 55519.8 68961.6
1.42e-06 8166.08 8052.09 103429 55533.6 68952.4
1.43e-06 8165.01 8053.71 103415 55547.2 68943.3
1.44e-06 8163.97 8055.3 103402 55560.4 68934.5
1.45e-06 8162.95 8056.85 103389 55573.3 68925.9
1.46e-06 8161.96 8058.35 103376 55585.9 68917.6
1.47e-06 8160.99 8059.83 103364 55598.1 68909.4
1.48e-06 8160.05 8061.27 103352 55610.1 68901.4
1.49e-06 8159.12 8062.67 103340 55621.8 68893.6
1.5e-06 8158.22 8064.04 103329 55633.2 68886
1.51e-06 8157.34 8065.38 103318 55644.4 68878.5
1.52e-06 8156.48 8066.68 103307 55655.2 68871.3
1.53e-06 8155.64 8067.95 103296 55665.9 68864.2
1.54e-06 8154.83 8069.2 103286 55676.2 68857.3
1.55e-06 8154.03 8070.41 103276 55686.3 68850.6
1.56e-06 8153.25 8071.59 103266 55696.2 68844
1.57e-06 8152.49 8072.75 103256 55705.8 68837.6
1.58e-06 8151.74 8073.88 103247 55715.3 68831.3
1.59e-06 8151.02 8074.98 103238 55724.4 68825.2
1.6e-06 8150.31 8076.06 103229 55733.4 68819.2
1.61e-06 8149.62 8077.11 103220 55742.2 68813.4
1.62e-06 8148.95 8078.13 103211 55750.7 68807.7
1.63e-06 8148.29 8079.13 103203 55759 68802.1
1.64e-06 8147.64 8080.11 103195 55767.2 68796.7
1.65e-06 8147.02 8081.07 103187 55775.1 68791.4
1.66e-06 8146.4 8082 103179 55782.9 68786.2
1.67e-06 8145.8 8082.91 103172 55790.5 68781.1
1.68e-06 8145.22 8083.79 103164 55797.9 68776.2
1.69e-06 8144.65 8084.66 103157 55805.1 68771.4
1.7e-06 8144.09 8085.51 103150 55812.2 68766.7
1.71e-06 8143.55 8086.33 103143 55819 68762.1
1.72e-06 8143.02 8087.14 103136 55825.8 68757.6
1.73e-06 8142.5 8087.93 103130 55832.3 68753.2
1.74e-06 8141.99 8088.7 103123 55838.7 68749
1.75e-06 8141.5 8089.45 103117 55845 68744.8
1.76e-06 8141.02 8090.18 103111 55851.1 68740.7
1.77e-06 8140.55 8090.9 103105 55857.1 68736.7
1.78e-06 8140.09 8091.6 103099 55862.9 68732.8
1.79e-06 8139.64 8092.28 103094 55868.6 68729.1
1.8e-06 8139.2 8092.95 103088 55874.2 68725.4
1.81e-06 8138.77 8093.6 103083 55879.6 68721.7
1.82e-06 8138.35 8094.23 103077 55884.9 68718.2
1.83e-06 8137.94 8094.85 103072 55890.1 68714.8
1.84e-06 8137.54 8095.46 103067 55895.1 68711.4
1.85e-06 8137.15 8096.05 103062 55900 68708.1
1.86e-06 8136.77 8096.63 103057 55904.9 68704.9
1.87e-06 8136.4 8097.19 103053 55909.6 68701.7
1.88e-06 8136.04 8097.74 103048 55914.2 68698.7
1.89e-06 8135.69 8098.28 103044 55918.6 68695.7
1.9e-06 8135.34 8098.81 103039 55923 68692.8
1.91e-06 8135 8099.32 103035 55927.3 68689.9
1.92e-06 8134.67 8099.82 103031 55931.5 68687.1
1.93e-06 8134.35 8100.31 103027 55935.6 68684.4
1.94e-06 8134.04 8100.79 103023 55939.5 68681.8
1.95e-06 8133.73 8101.26 103019 55943.4 68679.2
1.96e-06 8133.43 8101.71 103015 55947.2 68676.6
1.97e-06 8133.14 8102.16 103011 55950.9 68674.2
1.98e-06 8132.85 8102.59 103008 55954.6 68671.7
1.99e-06 8132.57 8103.02 103004 55958.1 68669.4
2e-06 8132.3 8103.43 103001 55961.6 68667.1
2.01e-06 8132.03 8103.84 102997 55964.9 68664.8
2.02e-06 8131.77 8104.23 102994 55968.2 68662.6
2.03e-06 8131.52 8104.62 102991 55971.5 68660.5
2.04e-06 8131.27 8104.99 102988 55974.6 68658.4
2.05e-06 8131.03 8105.36 102985 55977.7 68656.3
2.06e-06 8130.79 8105.72 102982 55980.7 68654.3
2.07e-06 8130.56 8106.07 102979 55983.6 68652.4
2.08e-06 8130.33 8106.42 102976 55986.5 68650.5
2.09e-06 8130.11 8106.75 102973 55989.3 68648.6
2.1e-06 8129.9 8107.08 102970 55992 68646.8
2.11e-06 8129.68 8107.4 102968 55994.6 68645
2.12e-06 8129.48 8107.71 102965 55997.2 68643.3
2.13e-06 8129.28 8108.02 102962 55999.8 68641.6
2.14e-06 8129.08 8108.32 102960 56002.3 68639.9
2.15e-06 8128.89 8108.61 102957 56004.7 68638.3
2.16e-06 8128.7 8108.89 102955 56007.1 68636.7
2.17e-06 8128.52 8109.17 102953 56009.4 68635.2
2.18e-06 8128.34 8109.44 102951 56011.6 68633.7
2.19e-06 8128.17 8109.7 102948 56013.8 68632.2
2.2e-06 8128 8109.96 102946 56016 68630.8
2.21e-06 8127.83 8110.21 102944 56018.1 68629.4
2.22e-06 8127.67 8110.46 102942 56020.2 68628
2.23e-06 8127.51 8110.7 102940 56022.2 68626.7
2.24e-06 8127.36 8110.94 102938 56024.1 68625.4
2.25e-06 8127.21 8111.17 102936 56026 68624.1
2.26e-06 8127.06 8111.39 102934 56027.9 68622.8
2.27e-06 8126.91 8111.61 102932 56029.7 68621.6
2.28e-06 8126.77 8111.83 102931 56031.5 68620.4
2.29e-06 8126.63 8112.03 102929 56033.3 68619.3
2.3e-06 8126.5 8112.24 102927 56035 68618.1
2.31e-06 8126.37 8112.44 102926 56036.6 68617
2.32e-06 8126.24 8112.63 102924 56038.3 68615.9
2.33e-06 8126.12 8112.82 102922 56039.9 68614.9
2.34e-06 8125.99 8113.01 102921 56041.4 68613.9
2.35e-06 8125.87 8113.19 102919 56042.9 68612.8
2.36e-06 8125.76 8113.37 102918 56044.4 68611.9
2.37e-06 8125.64 8113.54 102916 56045.8 68610.9
2.38e-06 8125.53 8113.71 102915 56047.3 68610
2.39e-06 8125.42 8113.88 102914 56048.6 68609
2.4e-06 8125.32 8114.04 102912 56050 68608.1
2.41e-06 8125.21 8114.2 102911 56051.3 68607.3
2.42e-06 8125.11 8114.35 102910 56052.6 68606.4
2.43e-06 8125.01 8114.5 102908 56053.8 68605.6
2.44e-06 8124.92 8114.65 102907 56055.1 68604.8
2.45e-06 8124.82 8114.79 102906 56056.3 68604
2.46e-06 8124.73 8114.93 102905 56057.4 68603.2
2.47e-06 8124.64 8115.07 102904 56058.6 68602.4
2.48e-06 8124.55 8115.2 102903 56059.7 68601.7
2.49e-06 8124.46 8115.33 102901 56060.8 68600.9
2.5e-06 8124.38 8115.46 102900 56061.8 68600.2
2.51e-06 8124.3 8115.58 102899 56062.9 68599.5
2.52e-06 8124.22 8115.71 102898 56063.9 68598.9
2.53e-06 8124.14 8115.83 102897 56064.9 68598.2
2.54e-06 8124.06 8115.94 102896 56065.8 68597.6
2.55e-06 8123.99 8116.06 102895 56066.8 68596.9
2.56e-06 8123.92 8116.17 102894 56067.7 68596.3
2.57e-06 8123.84 8116.27 102894 56068.6 68595.7
2.58e-06 8123.77 8116.38 102893 56069.5 68595.1
2.59e-06 8123.71 8116.48 102892 56070.4 68594.5
2.6e-06 8123.64 8116.58 102891 56071.2 68594
2.61e-06 8123.58 8116.68 102890 56072 68593.4
2.62e-06 8123.51 8116.78 102889 56072.8 68592.9
2.63e-06 8123.45 8116.87 102889 56073.6 68592.4
2.64e-06 8123.39 8116.97 102888 56074.4 68591.9
2.65e-06 8123.33 8117.06 102887 56075.1 68591.4
2.66e-06 8123.27 8117.14 102886 56075.9 68590.9
2.67e-06 8123.22 8117.23 102886 56076.6 68590.4
2.68e-06 8123.16 8117.31 102885 56077.3 68589.9
2.69e-06 8123.11 8117.39 102884 56078 68589.5
2.7e-06 8123.06 8117.47 102884 56078.6 68589
2.71e-06 8123 8117.55 102883 56079.3 68588.6
2.72e-06 8122.95 8117.63 102882 56079.9 68588.2
2.73e-06 8122.9 8117.7 102882 56080.5 68587.8
2.74e-06 8122.86 8117.77 102881 56081.1 68587.4
2.75e-06 8122.81 8117.85 102880 56081.7 68587
2.76e-06 8122.76 8117.92 102880 56082.3 68586.6
2.77e-06 8122.72 8117.98 102879 56082.9 68586.2
2.78e-06 8122.68 8118.05 102879 56083.4 68585.8
2.79e-06 8122.63 8118.11 102878 56084 68585.5
2.8e-06 8122.59 8118.18 102878 56084.5 68585.1
2.81e-06 8122.55 8118.24 102877 56085 68584.8
2.82e-06 8122.51 8118.3 102877 56085.5 68584.5
2.83e-06 8122.47 8118.36 102876 56086 68584.1
2.84e-06 8122.44 8118.42 102876 56086.5 68583.8
2.85e-06 8122.4 8118.47 102875 56086.9 68583.5
2.86e-06 8122.36 8118.53 102875 56087.4 68583.2
2.87e-06 8122.33 8118.58 102874 56087.8 68582.9
2.88e-06 8122.29 8118.63 102874 56088.3 68582.6
2.89e-06 8122.26 8118.68 102873 56088.7 68582.3
2.9e-06 8122.23 8118.73 102873 56089.1 68582
2.91e-06 8122.19 8118.78 102873 56089.5 68581.8
2.92e-06 8122.16 8118.83 102872 56089.9 68581.5
2.93e-06 8122.13 8118.88 102872 56090.3 68581.3
2.94e-06 8122.1 8118.92 102871 56090.7 68581
2.95e-06 8122.07 8118.97 102871 56091.1 68580.8
2.96e-06 8122.04 8119.01 102871 56091.4 68580.5
2.97e-06 8122.02 8119.05 102870 56091.8 68580.3
2.98e-06 8121.99 8119.09 102870 56092.1 68580
2.99e-06 8121.96 8119.13 102870 56092.5 68579.8
3e-06 8121.94 8119.17 102869 56092.8 68579.6
3.01e-06 8121.91 8119.21 102869 56093.1 68579.4
3.02e-06 8121.89 8119.25 102869 56093.4 68579.2
3.03e-06 8121.86 8119.29 102868 56093.7 68579
3.04e-06 8121.84 8119.32 102868 56094 68578.8
3.05e-06 8121.82 8119.36 102868 56094.3 68578.6
3.06e-06 8121.79 8119.39 102868 56094.6 68578.4
3.07e-06 8121.77 8119.43 102867 56094.9 68578.2
3.08e-06 8121.75 8119.46 102867 56095.2 68578
3.09e-06 8121.73 8119.49 102867 56095.4 68577.8
3.1e-06 8121.71 8119.52 102867 56095.7 68577.7
3.11e-06 8121.69 8119.55 102866 56095.9 68577.5
3.12e-06 8121.67 8119.58 102866 56096.2 68577.3
3.13e-06 8121.65 8119.61 102866 56096.4 68577.2
3.14e-06 8121.63 8119.64 102866 56096.7 68577
3.15e-06 8121.61 8119.67 102865 56096.9 68576.9
3.16e-06 8121.59 8119.69 102865 56097.1 68576.7
3.17e-06 8121.58 8119.72 102865 56097.3 68576.6
3.18e-06 8121.56 8119.75 102865 56097.6 68576.4
3.19e-06 8121.54 8119.77 102864 56097.8 68576.3
3.2e-06 8121.53 8119.8 102864 56098 68576.1
3.21e-06 8121.51 8119.82 102864 56098.2 68576
3.22e-06 8121.49 8119.84 102864 56098.4 68575.9
3.23e-06 8121.48 8119.87 102864 56098.6 68575.7
3.24e-06 8121.46 8119.89 102863 56098.8 68575.6
3.25e-06 8121.45 8119.91 102863 56098.9 68575.5
3.26e-06 8121.44 8119.93 102863 56099.1 68575.4
3.27e-06 8121.42 8119.95 102863 56099.3 68575.3
3.28e-06 8121.41 8119.97 102863 56099.5 68575.1
3.29e-06 8121.4 8119.99 102863 56099.6 68575
3.3e-06 8121.38 8120.01 102862 56099.8 68574.9
3.31e-06 8121.37 8120.03 102862 56100 68574.8
3.32e-06 8121.36 8120.05 102862 56100.1 68574.7
3.33e-06 8121.35 8120.07 102862 56100.3 68574.6
3.34e-06 8121.33 8120.09 102862 56100.4 68574.5
3.35e-06 8121.32 8120.11 102862 56100.6 68574.4
3.36e-06 8121.31 8120.12 102861 56100.7 68574.3
3.37e-06 8121.3 8120.14 102861 56100.8 68574.2
3.38e-06 8121.29 8120.16 102861 56101 68574.1
3.39e-06 8121.28 8120.17 102861 56101.1 68574.1
3.4e-06 8121.27 8120.19 102861 56101.2 68574
3.41e-06 8121.26 8120.2 102861 56101.4 68573.9
3.42e-06 8121.25 8120.22 102861 56101.5 68573.8
3.43e-06 8121.24 8120.23 102861 56101.6 68573.7
3.44e-06 8121.23 8120.24 102860 56101.7 68573.6
3.45e-06 8121.22 8120.26 102860 56101.8 68573.6
3.46e-06 8121.21 8120.27 102860 56101.9 68573.5
3.47e-06 8121.2 8120.29 102860 56102.1 68573.4
3.48e-06 8121.2 8120.3 102860 56102.2 68573.3
3.49e-06 8121.19 8120.31 102860 56102.3 68573.3
3.5e-06 8121.18 8120.32 102860 56102.4 68573.2
3.51e-06 8121.17 8120.33 102860 56102.5 68573.1
3.52e-06 8121.16 8120.35 102860 56102.6 68573.1
3.53e-06 8121.16 8120.36 102860 56102.7 68573
3.54e-06 8121.15 8120.37 102859 56102.8 68573
3.55e-06 8121.14 8120.38 102859 56102.8 68572.9
3.56e-06 8121.14 8120.39 102859 56102.9 68572.8
3.57e-06 8121.13 8120.4 102859 56103 68572.8
3.58e-06 8121.12 8120.41 102859 56103.1 68572.7
3.59e-06 8121.12 8120.42 102859 56103.2 68572.7
3.6e-06 8121.11 8120.43 102859 56103.3 68572.6
3.61e-06 8121.1 8120.44 102859 56103.3 68572.6
3.62e-06 8121.1 8120.45 102859 56103.4 68572.5
3.63e-06 8121.09 8120.46 102859 56103.5 68572.5
3.64e-06 8121.08 8120.47 102859 56103.6 68572.4
3.65e-06 8121.08 8120.48 102859 56103.6 68572.4
3.66e-06 8121.07 8120.48 102858 56103.7 68572.3
3.67e-06 8121.07 8120.49 102858 56103.8 68572.3
3.68e-06 8121.06 8120.5 102858 56103.9 68572.2
3.69e-06 8121.06 8120.51 102858 56103.9 68572.2
3.7e-06 8121.05 8120.52 102858 56104 68572.1
3.71e-06 8121.05 8120.52 102858 56104 68572.1
3.72e-06 8121.04 8120.53 102858 56104.1 68572.1
3.73e-06 8121.04 8120.54 102858 56104.2 68572
3.74e-06 8121.03 8120.55 102858 56104.2 68572
3.75e-06 8121.03 8120.55 102858 56104.3 68571.9
3.76e-06 8121.02 8120.56 102858 56104.3 68571.9
3.77e-06 8121.02 8120.57 102858 56104.4 68571.9
3.78e-06 8121.02 8120.57 102858 56104.4 68571.8
3.79e-06 8121.01 8120.58 102858 56104.5 68571.8
3.8e-06 8121.01 8120.58 102858 56104.5 68571.8
3.81e-06 8121 8120.59 102858 56104.6 68571.7
3.82e-06 8121 8120.6 102858 56104.6 68571.7
3.83e-06 8121 8120.6 102857 56104.7 68571.7
3.84e-06 8120.99 8120.61 102857 56104.7 68571.6
3.85e-06 8120.99 8120.61 102857 56104.8 68571.6
3.86e-06 8120.99 8120.62 102857 56104.8 68571.6
3.87e-06 8120.98 8120.62 102857 56104.9 68571.5
3.88e-06 8120.98 8120.63 102857 56104.9 68571.5
3.89e-06 8120.98 8120.63 102857 56104.9 68571.5
3.9e-06 8120.97 8120.64 102857 56105 68571.5
3.91e-06 8120.97 8120.64 102857 56105 68571.4
3.92e-06 8120.97 8120.65 102857 56105.1 68571.4
3.93e-06 8120.96 8120.65 102857 56105.1 68571.4
3.94e-06 8120.96 8120.66 102857 56105.1 68571.4
3.95e-06 8120.96 8120.66 102857 56105.2 68571.3
3.96e-06 8120.96 8120.66 102857 56105.2 68571.3
3.97e-06 8120.95 8120.67 102857 56105.2 68571.3
3.98e-06 8120.95 8120.67 102857 56105.3 68571.3
3.99e-06 8120.95 8120.68 102857 56105.3 68571.3
4e-06 8120.95 8120.68 102857 56105.3 68571.2
4.01e-06 8120.94 8120.68 102857 56105.4 68571.2
4.02e-06 8120.94 8120.69 102857 56105.4 68571.2
4.03e-06 8120.94 8120.69 102857 56105.4 68571.2
4.04e-06 8120.94 8120.69 102857 56105.5 68571.2
4.05e-06 8120.93 8120.7 102857 56105.5 68571.1
4.06e-06 8120.93 8120.7 102857 56105.5 68571.1
4.07e-06 8120.93 8120.7 102857 56105.5 68571.1
4.08e-06 8120.93 8120.71 102857 56105.6 68571.1
4.09e-06 8120.93 8120.71 102857 56105.6 68571.1
4.1e-06 8120.92 8120.71 102857 56105.6 68571
4.11e-06 8120.92 8120.72 102857 56105.6 68571
4.12e-06 8120.92 8120.72 102857 56105.7 68571
4.13e-06 8120.92 8120.72 102856 56105.7 68571
4.14e-06 8120.92 8120.72 102856 56105.7 68571
4.15e-06 8120.91 8120.73 102856 56105.7 68571
4.16e-06 8120.91 8120.73 102856 56105.8 68571
4.17e-06 8120.91 8120.73 102856 56105.8 68570.9
4.18e-06 8120.91 8120.73 102856 56105.8 68570.9
4.19e-06 8120.91 8120.74 102856 56105.8 68570.9
4.2e-06 8120.91 8120.74 102856 56105.8 68570.9
4.21e-06 8120.9 8120.74 102856 56105.9 68570.9
4.22e-06 8120.9 8120.74 102856 56105.9 68570.9
4.23e-06 8120.9 8120.75 102856 56105.9 68570.9
